Motion Sensor Data File Sep 20	 2018 9:52 AM
Time (s)	Distance (cm)	Dist Error (cm)
0.000	24.675	0.239
0.010	24.904	0.239
0.020	25.112	0.239
0.030	25.315	0.239
0.040	25.492	0.239
0.050	25.657	0.239
0.060	25.813	0.239
0.070	25.973	0.239
0.080	26.103	0.239
0.090	26.203	0.239
0.100	26.282	0.239
0.110	26.322	0.239
0.120	26.357	0.239
0.130	26.350	0.239
0.140	26.321	0.239
0.150	26.267	0.239
0.160	26.199	0.239
0.170	26.101	0.239
0.180	25.978	0.239
0.190	25.837	0.239
0.200	25.688	0.239
0.210	25.512	0.239
0.220	25.312	0.239
0.230	25.098	0.239
0.240	24.880	0.239
0.250	24.640	0.239
0.260	24.392	0.239
0.270	24.144	0.239
0.280	23.896	0.239
0.290	23.635	0.239
0.300	23.374	0.239
0.310	23.112	0.239
0.320	22.868	0.239
0.330	22.616	0.239
0.340	22.372	0.239
0.350	22.137	0.239
0.360	21.927	0.239
0.370	21.718	0.239
0.380	21.525	0.239
0.390	21.342	0.239
0.400	21.184	0.239
0.410	21.056	0.239
0.420	20.933	0.239
0.430	20.835	0.239
0.440	20.759	0.239
0.450	20.721	0.239
0.460	20.692	0.239
0.470	20.689	0.239
0.480	20.712	0.239
0.490	20.765	0.239
0.500	20.830	0.239
0.510	20.918	0.239
0.520	21.026	0.239
0.530	21.169	0.239
0.540	21.317	0.239
0.550	21.486	0.239
0.560	21.667	0.239
0.570	21.888	0.239
0.580	22.104	0.239
0.590	22.333	0.239
0.600	22.571	0.239
0.610	22.830	0.239
0.620	23.081	0.239
0.630	23.335	0.239
0.640	23.590	0.239
0.650	23.850	0.239
0.660	24.113	0.239
0.670	24.359	0.239
0.680	24.601	0.239
0.690	24.835	0.239
0.700	25.068	0.239
0.710	25.275	0.239
0.720	25.470	0.239
0.730	25.643	0.239
0.740	25.816	0.239
0.750	25.960	0.239
0.760	26.081	0.239
0.770	26.181	0.239
0.780	26.273	0.239
0.790	26.325	0.239
0.800	26.353	0.239
0.810	26.358	0.239
0.820	26.351	0.239
0.830	26.304	0.239
0.840	26.237	0.239
0.850	26.148	0.239
0.860	26.050	0.239
0.870	25.923	0.239
0.880	25.773	0.239
0.890	25.602	0.239
0.900	25.419	0.239
0.910	25.213	0.239
0.920	24.983	0.239
0.930	24.730	0.239
0.940	24.486	0.239
0.950	24.242	0.239
0.960	23.985	0.239
0.970	23.733	0.239
0.980	23.476	0.239
0.990	23.223	0.239
1.000	22.958	0.239
1.010	22.697	0.239
1.020	22.440	0.239
1.030	22.197	0.239
1.040	21.953	0.239
1.050	21.709	0.239
1.060	21.499	0.239
1.070	21.316	0.239
1.080	21.149	0.239
1.090	20.996	0.239
1.100	20.876	0.239
1.110	20.791	0.239
1.120	20.711	0.239
1.130	20.652	0.239
1.140	20.615	0.239
1.150	20.607	0.239
1.160	20.604	0.239
1.170	20.622	0.239
1.180	20.671	0.239
1.190	20.745	0.239
1.200	20.858	0.239
1.210	20.984	0.239
1.220	21.140	0.239
1.230	21.313	0.239
1.240	21.525	0.239
1.250	21.724	0.239
1.260	21.936	0.239
1.270	22.156	0.239
1.280	22.403	0.239
1.290	22.645	0.239
1.300	22.900	0.239
1.310	23.154	0.239
1.320	23.426	0.239
1.330	23.686	0.239
1.340	23.945	0.239
1.350	24.195	0.239
1.360	24.450	0.239
1.370	24.688	0.239
1.380	24.917	0.239
1.390	25.133	0.239
1.400	25.354	0.239
1.410	25.544	0.239
1.420	25.713	0.239
1.430	25.869	0.239
1.440	26.012	0.239
1.450	26.125	0.239
1.460	26.216	0.239
1.470	26.286	0.239
1.480	26.331	0.239
1.490	26.366	0.239
1.500	26.363	0.239
1.510	26.338	0.239
1.520	26.292	0.239
1.530	26.233	0.239
1.540	26.136	0.239
1.550	26.016	0.239
1.560	25.880	0.239
1.570	25.731	0.239
1.580	25.560	0.239
1.590	25.364	0.239
1.600	25.158	0.239
1.610	24.949	0.239
1.620	24.718	0.239
1.630	24.478	0.239
1.640	24.226	0.239
1.650	23.982	0.239
1.660	23.725	0.239
1.670	23.464	0.239
1.680	23.198	0.239
1.690	22.950	0.239
1.700	22.694	0.239
1.710	22.446	0.239
1.720	22.210	0.239
1.730	21.983	0.239
1.740	21.787	0.239
1.750	21.590	0.239
1.760	21.407	0.239
1.770	21.244	0.239
1.780	21.112	0.239
1.790	20.984	0.239
1.800	20.883	0.239
1.810	20.798	0.239
1.820	20.751	0.239
1.830	20.714	0.239
1.840	20.702	0.239
1.850	20.712	0.239
1.860	20.761	0.239
1.870	20.818	0.239
1.880	20.896	0.239
1.890	20.996	0.239
1.900	21.135	0.239
1.910	21.278	0.239
1.920	21.439	0.239
1.930	21.616	0.239
1.940	21.828	0.239
1.950	22.035	0.239
1.960	22.256	0.239
1.970	22.489	0.239
1.980	22.744	0.239
1.990	22.990	0.239
2.000	23.245	0.239
2.010	23.505	0.239
2.020	23.751	0.239
2.030	24.006	0.239
2.040	24.256	0.239
2.050	24.481	0.239
2.060	24.706	0.239
2.070	24.943	0.239
2.080	25.147	0.239
2.090	25.341	0.239
2.100	25.532	0.239
2.110	25.714	0.239
2.120	25.861	0.239
2.130	25.982	0.239
2.140	26.074	0.239
2.150	26.166	0.239
2.160	26.218	0.239
2.170	26.241	0.239
2.180	26.233	0.239
2.190	26.226	0.239
2.200	26.189	0.239
2.210	26.126	0.239
2.220	26.045	0.239
2.230	25.956	0.239
2.240	25.837	0.239
2.250	25.696	0.239
2.260	25.542	0.239
2.270	25.371	0.239
2.280	25.196	0.239
2.290	24.987	0.239
2.300	24.760	0.239
2.310	24.521	0.239
2.320	24.277	0.239
2.330	24.015	0.239
2.340	23.754	0.239
2.350	23.489	0.239
2.360	23.237	0.239
2.370	22.980	0.239
2.380	22.736	0.239
2.390	22.505	0.239
2.400	22.287	0.239
2.410	22.073	0.239
2.420	21.872	0.239
2.430	21.676	0.239
2.440	21.500	0.239
2.450	21.330	0.239
2.460	21.176	0.239
2.470	21.036	0.239
2.480	20.934	0.239
2.490	20.844	0.239
2.500	20.777	0.239
2.510	20.726	0.239
2.520	20.711	0.239
2.530	20.708	0.239
2.540	20.730	0.239
2.550	20.778	0.239
2.560	20.844	0.239
2.570	20.944	0.239
2.580	21.057	0.239
2.590	21.192	0.239
2.600	21.343	0.239
2.610	21.525	0.239
2.620	21.711	0.239
2.630	21.915	0.239
2.640	22.131	0.239
2.650	22.369	0.239
2.660	22.606	0.239
2.670	22.852	0.239
2.680	23.099	0.239
2.690	23.366	0.239
2.700	23.617	0.239
2.710	23.876	0.239
2.720	24.127	0.239
2.730	24.386	0.239
2.740	24.624	0.239
2.750	24.857	0.239
2.760	25.078	0.239
2.770	25.298	0.239
2.780	25.488	0.239
2.790	25.662	0.239
2.800	25.817	0.239
2.810	25.956	0.239
2.820	26.082	0.239
2.830	26.182	0.239
2.840	26.256	0.239
2.850	26.305	0.239
2.860	26.345	0.239
2.870	26.350	0.239
2.880	26.334	0.239
2.890	26.292	0.239
2.900	26.242	0.239
2.910	26.157	0.239
2.920	26.047	0.239
2.930	25.919	0.239
2.940	25.778	0.239
2.950	25.612	0.239
2.960	25.424	0.239
2.970	25.219	0.239
2.980	25.014	0.239
2.990	24.786	0.239
3.000	24.547	0.239
3.010	24.299	0.239
3.020	24.059	0.239
3.030	23.803	0.239
3.040	23.542	0.239
3.050	23.280	0.239
3.060	23.032	0.239
3.070	22.780	0.239
3.080	22.532	0.239
3.090	22.288	0.239
3.100	22.057	0.239
3.110	21.856	0.239
3.120	21.650	0.239
3.130	21.463	0.239
3.140	21.288	0.239
3.150	21.151	0.239
3.160	21.015	0.239
3.170	20.904	0.239
3.180	20.815	0.239
3.190	20.760	0.239
3.200	20.719	0.239
3.210	20.689	0.239
3.220	20.686	0.239
3.230	20.722	0.239
3.240	20.771	0.239
3.250	20.841	0.239
3.260	20.932	0.239
3.270	21.062	0.239
3.280	21.193	0.239
3.290	21.340	0.239
3.300	21.500	0.239
3.310	21.686	0.239
3.320	21.885	0.239
3.330	22.080	0.239
3.340	22.300	0.239
3.350	22.534	0.239
3.360	22.797	0.239
3.370	23.048	0.239
3.380	23.307	0.239
3.390	23.575	0.239
3.400	23.856	0.239
3.410	24.110	0.239
3.420	24.352	0.239
3.430	24.590	0.239
3.440	24.827	0.239
3.450	25.031	0.239
3.460	25.221	0.239
3.470	25.399	0.239
3.480	25.580	0.239
3.490	25.728	0.239
3.500	25.867	0.239
3.510	25.980	0.239
3.520	26.092	0.239
3.530	26.184	0.239
3.540	26.245	0.239
3.550	26.273	0.239
3.560	26.299	0.239
3.570	26.283	0.239
3.580	26.233	0.239
3.590	26.161	0.239
3.600	26.081	0.239
3.610	25.970	0.239
3.620	25.834	0.239
3.630	25.684	0.239
3.640	25.514	0.239
3.650	25.339	0.239
3.660	25.129	0.239
3.670	24.906	0.239
3.680	24.680	0.239
3.690	24.458	0.239
3.700	24.205	0.239
3.710	23.948	0.239
3.720	23.687	0.239
3.730	23.443	0.239
3.740	23.186	0.239
3.750	22.930	0.239
3.760	22.677	0.239
3.770	22.451	0.239
3.780	22.215	0.239
3.790	21.988	0.239
3.800	21.779	0.239
3.810	21.600	0.239
3.820	21.416	0.239
3.830	21.258	0.239
3.840	21.113	0.239
3.850	21.002	0.239
3.860	20.901	0.239
3.870	20.820	0.239
3.880	20.761	0.239
3.890	20.728	0.239
3.900	20.729	0.239
3.910	20.743	0.239
3.920	20.779	0.239
3.930	20.836	0.239
3.940	20.932	0.239
3.950	21.032	0.239
3.960	21.158	0.239
3.970	21.296	0.239
3.980	21.469	0.239
3.990	21.647	0.239
4.000	21.846	0.239
4.010	22.053	0.239
4.020	22.291	0.239
4.030	22.525	0.239
4.040	22.767	0.239
4.050	23.013	0.239
4.060	23.276	0.239
4.070	23.531	0.239
4.080	23.786	0.239
4.090	24.032	0.239
4.100	24.292	0.239
4.110	24.534	0.239
4.120	24.762	0.239
4.130	24.983	0.239
4.140	25.208	0.239
4.150	25.402	0.239
4.160	25.584	0.239
4.170	25.745	0.239
4.180	25.892	0.239
4.190	26.026	0.239
4.200	26.131	0.239
4.210	26.214	0.239
4.220	26.271	0.239
4.230	26.319	0.239
4.240	26.329	0.239
4.250	26.317	0.239
4.260	26.280	0.239
4.270	26.238	0.239
4.280	26.153	0.239
4.290	26.051	0.239
4.300	25.928	0.239
4.310	25.791	0.239
4.320	25.629	0.239
4.330	25.450	0.239
4.340	25.257	0.239
4.350	25.061	0.239
4.360	24.834	0.239
4.370	24.595	0.239
4.380	24.347	0.239
4.390	24.107	0.239
4.400	23.850	0.239
4.410	23.589	0.239
4.420	23.324	0.239
4.430	23.067	0.239
4.440	22.823	0.239
4.450	22.570	0.239
4.460	22.322	0.239
4.470	22.074	0.239
4.480	21.856	0.239
4.490	21.634	0.239
4.500	21.429	0.239
4.510	21.249	0.239
4.520	21.100	0.239
4.530	20.959	0.239
4.540	20.849	0.239
4.550	20.760	0.239
4.560	20.704	0.239
4.570	20.658	0.239
4.580	20.634	0.239
4.590	20.627	0.239
4.600	20.649	0.239
4.610	20.689	0.239
4.620	20.751	0.239
4.630	20.833	0.239
4.640	20.951	0.239
4.650	21.094	0.239
4.660	21.254	0.239
4.670	21.436	0.239
4.680	21.648	0.239
4.690	21.864	0.239
4.700	22.089	0.239
4.710	22.322	0.239
4.720	22.564	0.239
4.730	22.823	0.239
4.740	23.070	0.239
4.750	23.320	0.239
4.760	23.579	0.239
4.770	23.851	0.239
4.780	24.102	0.239
4.790	24.353	0.239
4.800	24.599	0.239
4.810	24.845	0.239
4.820	25.066	0.239
4.830	25.269	0.239
4.840	25.455	0.239
4.850	25.645	0.239
4.860	25.801	0.239
4.870	25.940	0.239
4.880	26.057	0.239
4.890	26.166	0.239
4.900	26.240	0.239
4.910	26.293	0.239
4.920	26.320	0.239
4.930	26.338	0.239
4.940	26.318	0.239
4.950	26.276	0.239
4.960	26.213	0.239
4.970	26.124	0.239
4.980	26.026	0.239
4.990	25.898	0.239
5.000	25.745	0.239
5.010	25.578	0.239
5.020	25.403	0.239
5.030	25.202	0.239
5.040	24.989	0.239
5.050	24.762	0.239
5.060	24.535	0.239
5.070	24.287	0.239
5.080	24.039	0.239
5.090	23.782	0.239
5.100	23.534	0.239
5.110	23.277	0.239
5.120	23.016	0.239
5.130	22.763	0.239
5.140	22.532	0.239
5.150	22.289	0.239
5.160	22.062	0.239
5.170	21.848	0.239
5.180	21.660	0.239
5.190	21.476	0.239
5.200	21.310	0.239
5.210	21.161	0.239
5.220	21.046	0.239
5.230	20.935	0.239
5.240	20.850	0.239
5.250	20.783	0.239
5.260	20.741	0.239
5.270	20.734	0.239
5.280	20.739	0.239
5.290	20.766	0.239
5.300	20.819	0.239
5.310	20.906	0.239
5.320	20.997	0.239
5.330	21.119	0.239
5.340	21.254	0.239
5.350	21.423	0.239
5.360	21.595	0.239
5.370	21.786	0.239
5.380	21.989	0.239
5.390	22.223	0.239
5.400	22.447	0.239
5.410	22.681	0.239
5.420	22.927	0.239
5.430	23.191	0.239
5.440	23.441	0.239
5.450	23.692	0.239
5.460	23.947	0.239
5.470	24.210	0.239
5.480	24.452	0.239
5.490	24.685	0.239
5.500	24.906	0.239
5.510	25.118	0.239
5.520	25.325	0.239
5.530	25.507	0.239
5.540	25.676	0.239
5.550	25.823	0.239
5.560	25.962	0.239
5.570	26.067	0.239
5.580	26.150	0.239
5.590	26.215	0.239
5.600	26.268	0.239
5.610	26.278	0.239
5.620	26.253	0.239
5.630	26.224	0.239
5.640	26.174	0.239
5.650	26.085	0.239
5.660	25.983	0.239
5.670	25.868	0.239
5.680	25.744	0.239
5.690	25.595	0.239
5.700	25.424	0.239
5.710	25.236	0.239
5.720	25.040	0.239
5.730	24.817	0.239
5.740	24.586	0.239
5.750	24.342	0.239
5.760	24.103	0.239
5.770	23.837	0.239
5.780	23.568	0.239
5.790	23.303	0.239
5.800	23.041	0.239
5.810	22.802	0.239
5.820	22.558	0.239
5.830	22.327	0.239
5.840	22.105	0.239
5.850	21.908	0.239
5.860	21.707	0.239
5.870	21.523	0.239
5.880	21.348	0.239
5.890	21.203	0.239
5.900	21.063	0.239
5.910	20.935	0.239
5.920	20.841	0.239
5.930	20.778	0.239
5.940	20.728	0.239
5.950	20.712	0.239
5.960	20.713	0.239
5.970	20.744	0.239
5.980	20.784	0.239
5.990	20.846	0.239
6.000	20.928	0.239
6.010	21.050	0.239
6.020	21.176	0.239
6.030	21.319	0.239
6.040	21.488	0.239
6.050	21.665	0.239
6.060	21.877	0.239
6.070	22.085	0.239
6.080	22.309	0.239
6.090	22.543	0.239
6.100	22.798	0.239
6.110	23.048	0.239
6.120	23.299	0.239
6.130	23.554	0.239
6.140	23.817	0.239
6.150	24.068	0.239
6.160	24.310	0.239
6.170	24.552	0.239
6.180	24.798	0.239
6.190	25.014	0.239
6.200	25.222	0.239
6.210	25.416	0.239
6.220	25.607	0.239
6.230	25.767	0.239
6.240	25.910	0.239
6.250	26.032	0.239
6.260	26.145	0.239
6.270	26.223	0.239
6.280	26.280	0.239
6.290	26.312	0.239
6.300	26.334	0.239
6.310	26.322	0.239
6.320	26.285	0.239
6.330	26.230	0.239
6.340	26.146	0.239
6.350	26.057	0.239
6.360	25.933	0.239
6.370	25.788	0.239
6.380	25.626	0.239
6.390	25.455	0.239
6.400	25.259	0.239
6.410	25.049	0.239
6.420	24.822	0.239
6.430	24.600	0.239
6.440	24.356	0.239
6.450	24.104	0.239
6.460	23.851	0.239
6.470	23.607	0.239
6.480	23.350	0.239
6.490	23.094	0.239
6.500	22.841	0.239
6.510	22.606	0.239
6.520	22.366	0.239
6.530	22.139	0.239
6.540	21.921	0.239
6.550	21.725	0.239
6.560	21.537	0.239
6.570	21.362	0.239
6.580	21.204	0.239
6.590	21.072	0.239
6.600	20.966	0.239
6.610	20.872	0.239
6.620	20.800	0.239
6.630	20.750	0.239
6.640	20.738	0.239
6.650	20.735	0.239
6.660	20.758	0.239
6.670	20.798	0.239
6.680	20.876	0.239
6.690	20.963	0.239
6.700	21.072	0.239
6.710	21.202	0.239
6.720	21.362	0.239
6.730	21.531	0.239
6.740	21.709	0.239
6.750	21.899	0.239
6.760	22.107	0.239
6.770	22.323	0.239
6.780	22.548	0.239
6.790	22.786	0.239
6.800	23.040	0.239
6.810	23.291	0.239
6.820	23.546	0.239
6.830	23.796	0.239
6.840	24.055	0.239
6.850	24.302	0.239
6.860	24.540	0.239
6.870	24.764	0.239
6.880	24.976	0.239
6.890	25.188	0.239
6.900	25.366	0.239
6.910	25.530	0.239
6.920	25.673	0.239
6.930	25.821	0.239
6.940	25.938	0.239
6.950	26.029	0.239
6.960	26.108	0.239
6.970	26.182	0.239
6.980	26.222	0.239
6.990	26.236	0.239
7.000	26.220	0.239
7.010	26.191	0.239
7.020	26.124	0.239
7.030	26.039	0.239
7.040	25.928	0.239
7.050	25.809	0.239
7.060	25.660	0.239
7.070	25.493	0.239
7.080	25.305	0.239
7.090	25.121	0.239
7.100	24.908	0.239
7.110	24.694	0.239
7.120	24.476	0.239
7.130	24.228	0.239
7.140	23.997	0.239
7.150	23.748	0.239
7.160	23.496	0.239
7.170	23.239	0.239
7.180	23.000	0.239
7.190	22.747	0.239
7.200	22.508	0.239
7.210	22.272	0.239
7.220	22.059	0.239
7.230	21.849	0.239
7.240	21.648	0.239
7.250	21.469	0.239
7.260	21.315	0.239
7.270	21.174	0.239
7.280	21.047	0.239
7.290	20.941	0.239
7.300	20.869	0.239
7.310	20.809	0.239
7.320	20.768	0.239
7.330	20.752	0.239
7.340	20.775	0.239
7.350	20.802	0.239
7.360	20.858	0.239
7.370	20.929	0.239
7.380	21.042	0.239
7.390	21.159	0.239
7.400	21.297	0.239
7.410	21.454	0.239
7.420	21.627	0.239
7.430	21.826	0.239
7.440	22.029	0.239
7.450	22.249	0.239
7.460	22.474	0.239
7.470	22.725	0.239